 #  time     Re[S(t)]      Im[S(t)]
     0.000   1.000000000   0.000000000
     0.500   0.998484025   0.054565439
     1.000   0.993941003   0.108959823
     1.500   0.986385631   0.163012666
     2.000   0.975842345   0.216554622
     2.500   0.962345240   0.269418048
     3.000   0.945937949   0.321437563
     3.500   0.926673497   0.372450597
     4.000   0.904614116   0.422297934
     4.500   0.879831034   0.470824237
     5.000   0.852404229   0.517878566
     5.500   0.822422154   0.563314877
     6.000   0.789981439   0.606992503
     6.500   0.755186553   0.648776615
     7.000   0.718149452   0.688538670
     7.500   0.678989196   0.726156828
     8.000   0.637831541   0.761516349
     8.500   0.594808510   0.794509965
     9.000   0.550057945   0.825038225
     9.500   0.503723037   0.853009818
    10.000   0.455951840   0.878341855
    10.500   0.406896769   0.900960135
    11.000   0.356714082   0.920799376
    11.500   0.305563354   0.937803409
    12.000   0.253606939   0.951925348
    12.500   0.201009418   0.963127726
    13.000   0.147937053   0.971382597
    13.500   0.094557222   0.976671604
    14.000   0.041037865   0.978986019
    14.500  -0.012453080   0.978326739
    15.000  -0.065748235   0.974704268
    15.500  -0.118681337   0.968138642
    16.000  -0.171087788   0.958659344
    16.500  -0.222805201   0.946305171
    17.000  -0.273673928   0.931124077
    17.500  -0.323537584   0.913172984
    18.000  -0.372243559   0.892517564
    18.500  -0.419643508   0.869231985
    19.000  -0.465593834   0.843398640
    19.500  -0.509956144   0.815107839
    20.000  -0.552597692   0.784457481
    20.500  -0.593391796   0.751552699
    21.000  -0.632218240   0.716505477
    21.500  -0.668963642   0.679434259
    22.000  -0.703521804   0.640463520
    22.500  -0.735794037   0.599723331
    23.000  -0.765689452   0.557348900
    23.500  -0.793125230   0.513480103
    24.000  -0.818026858   0.468260995
    24.500  -0.840328342   0.421839312
    25.000  -0.859972379   0.374365965
    25.500  -0.876910512   0.325994522
    26.000  -0.891103242   0.276880685
    26.500  -0.902520115   0.227181761
    27.000  -0.911139779   0.177056134
    27.500  -0.916950001   0.126662732
    28.000  -0.919947666   0.076160498
    28.500  -0.920138734   0.025707861
    29.000  -0.917538166  -0.024537788
    29.500  -0.912169831  -0.074420608
    30.000  -0.904066371  -0.123786820
    30.500  -0.893269040  -0.172485202
    31.000  -0.879827520  -0.220367576
    31.500  -0.863799702  -0.267289285
    32.000  -0.845251446  -0.313109642
    32.500  -0.824256310  -0.357692381
    33.000  -0.800895260  -0.400906073
    33.500  -0.775256352  -0.442624534
    34.000  -0.747434397  -0.482727209
    34.500  -0.717530597  -0.521099531
    35.000  -0.685652172  -0.557633263
    35.500  -0.651911958  -0.592226811
    36.000  -0.616428002  -0.624785514
    36.500  -0.579323127  -0.655221911
    37.000  -0.540724497  -0.683455976
    37.500  -0.500763162  -0.709415330
    38.000  -0.459573597  -0.733035426
    38.500  -0.417293231  -0.754259700
    39.000  -0.374061971  -0.773039703
    39.500  -0.330021721  -0.789335195
    40.000  -0.285315897  -0.803114216
    40.500  -0.240088940  -0.814353130
    41.000  -0.194485833  -0.823036629
    41.500  -0.148651617  -0.829157726
    42.000  -0.102730910  -0.832717705
    42.500  -0.056867436  -0.833726047
    43.000  -0.011203554  -0.832200339
    43.500   0.034120195  -0.828166137
    44.000   0.078965543  -0.821656821
    44.500   0.123196925  -0.812713416
    45.000   0.166681905  -0.801384388
    45.500   0.209291587  -0.787725421
    46.000   0.250901006  -0.771799169
    46.500   0.291389505  -0.753674984
    47.000   0.330641093  -0.733428631
    47.500   0.368544784  -0.711141976
    48.000   0.404994919  -0.686902659
    48.500   0.439891457  -0.660803756
    49.000   0.473140259  -0.632943416
    49.500   0.504653334  -0.603424493
    50.000   0.534349074  -0.572354159
    50.500   0.562152458  -0.539843512
    51.000   0.587995231  -0.506007170
    51.500   0.611816066  -0.470962861
    52.000   0.633560692  -0.434831004
    52.500   0.653182000  -0.397734285
    53.000   0.670640129  -0.359797232
    53.500   0.685902515  -0.321145790
    54.000   0.698943925  -0.281906886
    54.500   0.709746464  -0.242208008
    55.000   0.718299552  -0.202176779
    55.500   0.724599881  -0.161940538
    56.000   0.728651351  -0.121625924
    56.500   0.730464970  -0.081358470
    57.000   0.730058748  -0.041262205
    57.500   0.727457554  -0.001459263
    58.000   0.722692962   0.037930496
    58.500   0.715803068   0.076789849
    59.000   0.706832292   0.115004566
    59.500   0.695831163   0.152463750
    60.000   0.682856077   0.189060157
    60.500   0.667969048   0.224690506
    61.000   0.651237441   0.259255770
    61.500   0.632733682   0.292661446
    62.000   0.612534967   0.324817813
    62.500   0.590722949   0.355640162
    63.000   0.567383418   0.385049014
    63.500   0.542605974   0.412970315
    64.000   0.516483680   0.439335609
    64.500   0.489112725   0.464082192
    65.000   0.460592065   0.487153241
    65.500   0.431023069   0.508497928
    66.000   0.400509156   0.528071506
    66.500   0.369155436   0.545835378
    67.000   0.337068345   0.561757143
    67.500   0.304355278   0.575810617
    68.000   0.271124235   0.587975839
    68.500   0.237483458   0.598239055
    69.000   0.203541076   0.606592675
    69.500   0.169404759   0.613035218
    70.000   0.135181372   0.617571235
    70.500   0.100976645   0.620211207
    71.000   0.066894839   0.620971437
    71.500   0.033038436   0.619873911
    72.000  -0.000492172   0.616946149
    72.500  -0.033598976   0.612221041
    73.000  -0.066186636   0.605736661
    73.500  -0.098162748   0.597536075
    74.000  -0.129438098   0.587667126
    74.500  -0.159926912   0.576182215
    75.000  -0.189547074   0.563138063
    75.500  -0.218220342   0.548595468
    76.000  -0.245872541   0.532619045
    76.500  -0.272433745   0.515276968
    77.000  -0.297838433   0.496640692
    77.500  -0.322025640   0.476784677
    78.000  -0.344939079   0.455786103
    78.500  -0.366527254   0.433724582
    79.000  -0.386743551   0.410681863
    79.500  -0.405546314   0.386741541
    80.000  -0.422898899   0.361988755
    80.500  -0.438769718   0.336509897
    81.000  -0.453132256   0.310392312
    81.500  -0.465965081   0.283724006
    82.000  -0.477251827   0.256593352
    82.500  -0.486981172   0.229088804
    83.000  -0.495146787   0.201298612
    83.500  -0.501747280   0.173310543
    84.000  -0.506786120   0.145211613
    84.500  -0.510271545   0.117087815
    85.000  -0.512216459   0.089023869
    85.500  -0.512638316   0.061102969
    86.000  -0.511558983   0.033406545
    86.500  -0.509004604   0.006014033
    87.000  -0.505005443  -0.020997340
    87.500  -0.499595717  -0.047552771
    88.000  -0.492813419  -0.073580072
    88.500  -0.484700141  -0.099009852
    89.000  -0.475300873  -0.123775696
    89.500  -0.464663803  -0.147814319
    90.000  -0.452840114  -0.171065711
    90.500  -0.439883766  -0.193473273
    91.000  -0.425851280  -0.214983934
    91.500  -0.410801510  -0.235548255
    92.000  -0.394795423  -0.255120524
    92.500  -0.377895863  -0.273658832
    93.000  -0.360167325  -0.291125135
    93.500  -0.341675720  -0.307485307
    94.000  -0.322488140  -0.322709174
    94.500  -0.302672633  -0.336770540
    95.000  -0.282297965  -0.349647195
    95.500  -0.261433395  -0.361320909
    96.000  -0.240148449  -0.371777421
    96.500  -0.218512697  -0.381006404
    97.000  -0.196595535  -0.389001431
    97.500  -0.174465971  -0.395759916
    98.000  -0.152192419  -0.401283052
    98.500  -0.129842494  -0.405575738
    99.000  -0.107482819  -0.408646491
    99.500  -0.085178837  -0.410507350
   100.000  -0.062994627  -0.411173774
   100.500  -0.040992736  -0.410664525
   101.000  -0.019234010  -0.409001549
   101.500   0.002222557  -0.406209843
   102.000   0.023319973  -0.402317320
   102.500   0.044003385  -0.397354665
   103.000   0.064220203  -0.391355187
   103.500   0.083920219  -0.384354660
   104.000   0.103055718  -0.376391169
   104.500   0.121581569  -0.367504943
   105.000   0.139455318  -0.357738190
   105.500   0.156637258  -0.347134925
   106.000   0.173090503  -0.335740801
   106.500   0.188781036  -0.323602934
   107.000   0.203677762  -0.310769730
   107.500   0.217752537  -0.297290708
   108.000   0.230980196  -0.283216330
   108.500   0.243338568  -0.268597822
   109.000   0.254808483  -0.253487005
   109.500   0.265373764  -0.237936125
   110.000   0.275021217  -0.221997683
   110.500   0.283740605  -0.205724272
   111.000   0.291524621  -0.189168414
   111.500   0.298368843  -0.172382403
   112.000   0.304271690  -0.155418150
   112.500   0.309234363  -0.138327037
   113.000   0.313260783  -0.121159770
   113.500   0.316357521  -0.103966241
   114.000   0.318533718  -0.086795398
   114.500   0.319801005  -0.069695115
   115.000   0.320173412  -0.052712071
   115.500   0.319667272  -0.035891639
   116.000   0.318301124  -0.019277777
   116.500   0.316095605  -0.002912928
   117.000   0.313073345   0.013162075
   117.500   0.309258853   0.028908094
   118.000   0.304678404   0.044287764
   118.500   0.299359918   0.059265566
   119.000   0.293332840   0.073807890
   119.500   0.286628022   0.087883093
   120.000   0.279277593   0.101461547
   120.500   0.271314840   0.114515683
   121.000   0.262774081   0.127020023
   121.500   0.253690538   0.138951208
   122.000   0.244100215   0.150288019
   122.500   0.234039773   0.161011389
   123.000   0.223546404   0.171104412
   123.500   0.212657713   0.180552336
   124.000   0.201411596   0.189342564
   124.500   0.189846121   0.197464633
   125.000   0.177999415   0.204910201
   125.500   0.165909548   0.211673014
   126.000   0.153614428   0.217748881
   126.500   0.141151686   0.223135635
   127.000   0.128558584   0.227833088
   127.500   0.115871905   0.231842988
   128.000   0.103127865   0.235168967
   128.500   0.090362017   0.237816483
   129.000   0.077609169   0.239792758
   129.500   0.064903295   0.241106722
   130.000   0.052277464   0.241768936
   130.500   0.039763763   0.241791529
   131.000   0.027393229   0.241188120
   131.500   0.015195788   0.239973745
   132.000   0.003200193   0.238164777
   132.500  -0.008566026   0.235778846
   133.000  -0.020076612   0.232834760
   133.500  -0.031306623   0.229352417
   134.000  -0.042232472   0.225352727
   134.500  -0.052831956   0.220857520
   135.000  -0.063084290   0.215889469
   135.500  -0.072970127   0.210471997
   136.000  -0.082471574   0.204629196
   136.500  -0.091572210   0.198385739
   137.000  -0.100257093   0.191766800
   137.500  -0.108512761   0.184797965
   138.000  -0.116327239   0.177505154
   138.500  -0.123690026   0.169914534
   139.000  -0.130592095   0.162052448
   139.500  -0.137025871   0.153945326
   140.000  -0.142985221   0.145619619
   140.500  -0.148465433   0.137101718
   141.000  -0.153463189   0.128417885
   141.500  -0.157976538   0.119594182
   142.000  -0.162004868   0.110656407
   142.500  -0.165548872   0.101630024
   143.000  -0.168610508   0.092540107
   143.500  -0.171192966   0.083411279
   144.000  -0.173300620   0.074267656
   144.500  -0.174938990   0.065132794
   145.000  -0.176114692   0.056029641
   145.500  -0.176835395   0.046980487
   146.000  -0.177109766   0.038006925
   146.500  -0.176947424   0.029129808
   147.000  -0.176358889   0.020369216
   147.500  -0.175355522   0.011744415
   148.000  -0.173949480   0.003273834
   148.500  -0.172153656  -0.005024964
   149.000  -0.169981626  -0.013135308
   149.500  -0.167447594  -0.021041437
   150.000  -0.164566335  -0.028728518
   150.500  -0.161353140  -0.036182662
   151.000  -0.157823762  -0.043390935
   151.500  -0.153994363  -0.050341361
   152.000  -0.149881452  -0.057022935
   152.500  -0.145501841  -0.063425621
   153.000  -0.140872584  -0.069540353
   153.500  -0.136010931  -0.075359031
   154.000  -0.130934272  -0.080874517
   154.500  -0.125660091  -0.086080624
   155.000  -0.120205913  -0.090972109
   155.500  -0.114589263  -0.095544659
   156.000  -0.108827613  -0.099794876
   156.500  -0.102938343  -0.103720258
   157.000  -0.096938696  -0.107319184
   157.500  -0.090845735  -0.110590890
   158.000  -0.084676308  -0.113535449
   158.500  -0.078447008  -0.116153745
   159.000  -0.072174137  -0.118447448
   159.500  -0.065873672  -0.120418987
   160.000  -0.059561234  -0.122071525
   160.500  -0.053252060  -0.123408923
   161.000  -0.046960968  -0.124435718
   161.500  -0.040702341  -0.125157084
   162.000  -0.034490094  -0.125578809
   162.500  -0.028337656  -0.125707252
   163.000  -0.022257952  -0.125549321
   163.500  -0.016263379  -0.125112431
   164.000  -0.010365795  -0.124404474
   164.500  -0.004576505  -0.123433787
   165.000   0.001093757  -0.122209113
   165.500   0.006634833  -0.120739572
   166.000   0.012037148  -0.119034622
   166.500   0.017291725  -0.117104032
   167.000   0.022390181  -0.114957840
   167.500   0.027324736  -0.112606329
   168.000   0.032088212  -0.110059986
   168.500   0.036674032  -0.107329475
   169.000   0.041076223  -0.104425605
   169.500   0.045289407  -0.101359295
   170.000   0.049308801  -0.098141550
   170.500   0.053130208  -0.094783426
   171.000   0.056750012  -0.091296003
   171.500   0.060165168  -0.087690358
   172.000   0.063373193  -0.083977538
   172.500   0.066372154  -0.080168534
   173.000   0.069160658  -0.076274253
   173.500   0.071737839  -0.072305499
   174.000   0.074103340  -0.068272947
   174.500   0.076257305  -0.064187121
   175.000   0.078200360  -0.060058373
   175.500   0.079933594  -0.055896867
   176.000   0.081458550  -0.051712556
   176.500   0.082777198  -0.047515165
   177.000   0.083891926  -0.043314179
   177.500   0.084805517  -0.039118823
   178.000   0.085521129  -0.034938049
   178.500   0.086042279  -0.030780526
   179.000   0.086372825  -0.026654625
   179.500   0.086516942  -0.022568411
   180.000   0.086479104  -0.018529630
   180.500   0.086264068  -0.014545704
   181.000   0.085876848  -0.010623724
   181.500   0.085322700  -0.006770440
   182.000   0.084607101  -0.002992259
   182.500   0.083735729   0.000704761
   183.000   0.082714444   0.004314913
   183.500   0.081549268   0.007832843
   184.000   0.080246368   0.011253553
   184.500   0.078812036   0.014572401
   185.000   0.077252670   0.017785099
   185.500   0.075574757   0.020887712
   186.000   0.073784857   0.023876660
   186.500   0.071889583   0.026748708
   187.000   0.069895585   0.029500969
   187.500   0.067809535   0.032130897
   188.000   0.065638111   0.034636281
   188.500   0.063387980   0.037015240
   189.000   0.061065787   0.039266219
   189.500   0.058678135   0.041387980
   190.000   0.056231578   0.043379596
   190.500   0.053732605   0.045240441
   191.000   0.051187625   0.046970186
   191.500   0.048602961   0.048568787
   192.000   0.045984834   0.050036476
   192.500   0.043339353   0.051373754
   193.000   0.040672508   0.052581381
   193.500   0.037990158   0.053660363
   194.000   0.035298023   0.054611946
   194.500   0.032601677   0.055437605
   195.000   0.029906537   0.056139029
   195.500   0.027217859   0.056718118
   196.000   0.024540734   0.057176965
   196.500   0.021880077   0.057517850
   197.000   0.019240624   0.057743227
   197.500   0.016626928   0.057855714
   198.000   0.014043356   0.057858081
   198.500   0.011494084   0.057753241
   199.000   0.008983094   0.057544237
   199.500   0.006514171   0.057234233
   200.000   0.004090905   0.056826502
   200.500   0.001716684   0.056324415
   201.000  -0.000605302   0.055731435
   201.500  -0.002872063   0.055051100
   202.000  -0.005080812   0.054287018
   202.500  -0.007228959   0.053442854
   203.000  -0.009314113   0.052522323
   203.500  -0.011334082   0.051529179
   204.000  -0.013286868   0.050467204
   204.500  -0.015170668   0.049340204
   205.000  -0.016983869   0.048151994
   205.500  -0.018725046   0.046906393
   206.000  -0.020392961   0.045607217
   206.500  -0.021986556   0.044258267
   207.000  -0.023504952   0.042863324
   207.500  -0.024947442   0.041426143
   208.000  -0.026313491   0.039950442
   208.500  -0.027602728   0.038439897
   209.000  -0.028814944   0.036898137
   209.500  -0.029950082   0.035328736
   210.000  -0.031008239   0.033735208
   210.500  -0.031989656   0.032121000
   211.000  -0.032894713   0.030489488
   211.500  -0.033723925   0.028843974
   212.000  -0.034477934   0.027187678
   212.500  -0.035157506   0.025523735
   213.000  -0.035763524   0.023855190
   213.500  -0.036296979   0.022184999
   214.000  -0.036758969   0.020516019
   214.500  -0.037150690   0.018851010
   215.000  -0.037473428   0.017192631
   215.500  -0.037728558   0.015543436
   216.000  -0.037917533   0.013905874
   216.500  -0.038041879   0.012282287
   217.000  -0.038103190   0.010674909
   217.500  -0.038103121   0.009085861
   218.000  -0.038043382   0.007517157
   218.500  -0.037925731   0.005970698
   219.000  -0.037751969   0.004448273
   219.500  -0.037523933   0.002951561
   220.000  -0.037243493   0.001482130
   220.500  -0.036912540   0.000041437
   221.000  -0.036532986  -0.001369170
   221.500  -0.036106757  -0.002748452
   222.000  -0.035635786  -0.004095275
   222.500  -0.035122008  -0.005408611
   223.000  -0.034567356  -0.006687536
   223.500  -0.033973754  -0.007931226
   224.000  -0.033343114  -0.009138955
   224.500  -0.032677331  -0.010310094
   225.000  -0.031978276  -0.011444105
   225.500  -0.031247795  -0.012540543
   226.000  -0.030487703  -0.013599045
   226.500  -0.029699777  -0.014619336
   227.000  -0.028885761  -0.015601217
   227.500  -0.028047352  -0.016544565
   228.000  -0.027186204  -0.017449328
   228.500  -0.026303923  -0.018315524
   229.000  -0.025402061  -0.019143230
   229.500  -0.024482118  -0.019932584
   230.000  -0.023545540  -0.020683777
   230.500  -0.022593710  -0.021397049
   231.000  -0.021627956  -0.022072683
   231.500  -0.020649543  -0.022711005
   232.000  -0.019659672  -0.023312372
   232.500  -0.018659485  -0.023877170
   233.000  -0.017650057  -0.024405814
   233.500  -0.016632401  -0.024898732
   234.000  -0.015607467  -0.025356372
   234.500  -0.014576140  -0.025779187
   235.000  -0.013539245  -0.026167637
   235.500  -0.012497546  -0.026522178
   236.000  -0.011451747  -0.026843264
   236.500  -0.010402492  -0.027131335
   237.000  -0.009350375  -0.027386819
   237.500  -0.008295932  -0.027610121
   238.000  -0.007239650  -0.027801624
   238.500  -0.006181972  -0.027961681
   239.000  -0.005123293  -0.028090614
   239.500  -0.004063972  -0.028188707
   240.000  -0.003004329  -0.028256204
   240.500  -0.001944655  -0.028293308
   241.000  -0.000885212  -0.028300172
   241.500   0.000173757  -0.028276902
   242.000   0.001232027  -0.028223551
   242.500   0.002289386  -0.028140121
   243.000   0.003345626  -0.028026555
   243.500   0.004400539  -0.027882741
   244.000   0.005453911  -0.027708509
   244.500   0.006505517  -0.027503630
   245.000   0.007555111  -0.027267818
   245.500   0.008602424  -0.027000727
   246.000   0.009647156  -0.026701956
   246.500   0.010688968  -0.026371047
   247.000   0.011727477  -0.026007487
   247.500   0.012762249  -0.025610713
   248.000   0.013792792  -0.025180112
   248.500   0.014818551  -0.024715026
   249.000   0.015838902  -0.024214757
   249.500   0.016853142  -0.023678567
   250.000   0.017860487  -0.023105688
   250.500   0.018860066  -0.022495325
   251.000   0.019850913  -0.021846663
   251.500   0.020831964  -0.021158871
   252.000   0.021802053  -0.020431113
   252.500   0.022759904  -0.019662555
   253.000   0.023704130  -0.018852369
   253.500   0.024633230  -0.017999746
   254.000   0.025545581  -0.017103903
   254.500   0.026439445  -0.016164093
   255.000   0.027312955  -0.015179615
